Date,Open,High,Low,Close,Volume,OpenInt
20081218,7.64,7.64,6.7,6.7,11701,0
20081219,6.69,7.29,6.68,7.29,12451,0
20081222,7.29,7.29,6.95,7.03,11265,0
20081223,6.99,6.99,6.99,6.99,205,0
20081229,7,7.16,7,7.15,3743,0
20081230,7.16,7.27,7,7.15,7437,0
20081231,7.25,7.29,7.19,7.19,4650,0
20090105,7.9,7.9,7.03,7.2,2350,0
20090106,7.04,7.65,7,7.65,13267,0
20090107,7.5,8,7.3,7.3,43560,0
20090108,7.05,7.16,7.03,7.16,4084,0
20090112,7.11,7.62,7.11,7.19,1839,0
20090113,7.02,7.59,7.02,7.59,3278,0
20090114,7.59,7.79,7.25,7.69,16707,0
20090115,7.4,7.4,7.4,7.4,648,0
20090116,7.22,7.58,7.22,7.3,1198,0
20090119,7.74,7.74,7.74,7.74,1,0
20090120,7.2,7.44,7.06,7.44,879,0
20090121,7.45,7.45,7.15,7.15,301,0
20090122,7.1,7.3,7.1,7.3,363,0
20090123,7.43,7.43,7.01,7.4,352,0
20090126,7.43,7.43,6.88,6.98,3184,0
20090127,6.98,6.98,6.83,6.94,1143,0
20090128,6.98,6.98,6.98,6.98,10,0
20090129,6.9,6.9,6.9,6.9,1056,0
20090130,6.82,6.82,6.74,6.8,1931,0
20090202,6.9,6.9,5.91,6.29,7054,0
20090203,6.3,6.3,6,6,1033,0
20090204,6,6,5.7,5.82,2694,0
20090205,5.4,5.9,5.1,5.74,14111,0
20090206,5.74,6.89,5.74,6.13,3799,0
20090209,5.8,6.17,5.8,6.17,3810,0
20090210,6.32,6.53,6,6.53,10491,0
20090211,6.68,6.89,6.5,6.54,7357,0
20090212,6.7,6.7,6.7,6.7,323,0
20090213,6.7,6.77,6.7,6.77,438,0
20090216,6.6,6.7,6,6,3301,0
20090217,5.8,5.8,5.42,5.42,5210,0
20090218,5.29,5.29,5.18,5.28,4727,0
20090219,5.41,5.41,5.39,5.39,933,0
20090220,5.39,5.39,5.39,5.39,10,0
20090223,5.15,5.37,5.15,5.37,1290,0
20090224,5.39,5.9,4.86,5.9,16481,0
20090225,5.74,6.4,5.74,6,2884,0
20090226,6.05,6.29,6.05,6.29,7250,0
20090227,6,6.2,6,6.2,1378,0
20090302,6.07,6.07,6.04,6.04,632,0
20090303,5.8,5.92,5.69,5.78,12430,0
20090304,5.64,5.99,5.64,5.99,870,0
20090305,6.03,6.25,5.9,6.25,2056,0
20090306,6.1,6.25,5.7,6.25,13805,0
20090309,5.9,5.9,5.9,5.9,1,0
20090310,5.91,5.91,5.91,5.91,380,0
20090311,5.91,6,5.91,6,6,0
20090312,5.91,6,5.91,6,619,0
20090313,5.9,6.79,5.9,6.79,6098,0
20090316,6.12,6.55,6.12,6.4,2048,0
20090317,6.79,6.79,6.6,6.6,379,0
20090318,6.79,6.79,6.72,6.75,1021,0
20090319,6.73,6.9,6.73,6.9,101,0
20090320,6.98,6.98,6.98,6.98,30,0
20090323,7.05,7.4,6.95,7.4,1357,0
20090324,7.43,7.47,7.4,7.4,874,0
20090325,7.5,7.5,7.35,7.35,333,0
20090326,7.7,7.7,7.7,7.7,2,0
20090327,7.7,7.7,7.6,7.6,52,0
20090330,7.6,7.6,7.6,7.6,2,0
20090331,7.6,7.6,7.6,7.6,2,0
20090401,7.6,7.6,7.2,7.2,2,0
20090402,7.3,7.7,7.3,7.7,363,0
20090403,7.6,7.7,7.3,7.7,2291,0
20090406,7.7,7.88,7.7,7.73,3765,0
20090407,7.8,7.9,7.78,7.8,3424,0
20090408,7.8,7.9,7.74,7.9,6169,0
20090409,7.95,8.3,7.9,8.3,9453,0
20090414,8.3,8.3,7.95,7.95,3745,0
20090415,7.9,7.99,7.9,7.99,3634,0
20090416,7.83,8.3,7.83,8.29,6387,0
20090417,8.09,8.3,8.09,8.3,295,0
20090420,8.25,8.25,7.8,7.85,2545,0
20090421,7.86,8.1,7.86,7.9,669,0
20090422,7.9,8.55,7.9,8.55,7055,0
20090423,8.6,9.11,8.6,9.06,7952,0
20090424,9.19,9.38,9.06,9.35,5175,0
20090427,9.4,9.4,8.6,9.05,2539,0
20090428,9.44,12.39,9.44,11.5,31994,0
20090429,12.88,12.88,11.5,11.97,43773,0
20090430,11.99,11.99,11.5,11.8,14860,0
20090504,11.99,11.99,11.6,11.8,8564,0
20090505,12.01,12.19,12,12,4027,0
20090506,12,12,11.95,11.95,3454,0
20090507,11.96,11.96,11.5,11.8,8466,0
20090508,11.51,11.68,11.51,11.64,7712,0
20090511,11.79,12.1,11.79,12.1,19190,0
20090512,12.1,12.38,12,12,2628,0
20090513,12,12,11.45,11.45,6151,0
20090514,11.4,11.4,11.4,11.4,100,0
20090515,11.51,11.51,11.1,11.1,3594,0
20090518,11.35,11.79,11.35,11.5,1677,0
20090519,11.8,11.84,11.8,11.8,1500,0
20090520,12,12,11.97,12,8247,0
20090521,11.7,12.09,11.51,12.08,27001,0
20090522,12.08,12.1,11.85,12.1,8966,0
20090525,12.24,12.24,12,12.1,2733,0
20090526,11.86,12.2,11.86,12.19,36316,0
20090527,12.22,12.22,12.02,12.02,1873,0
20090528,12,12.03,12,12.03,16519,0
20090529,12.12,12.15,12.05,12.15,1470,0
20090601,12.15,12.8,12.1,12.5,7788,0
20090602,12.77,12.86,12.5,12.5,4220,0
20090603,12.54,12.82,12.54,12.56,2415,0
20090604,12.65,12.85,12.6,12.85,1393,0
20090605,12.92,12.96,12.9,12.9,2313,0
20090608,12.9,13,12.8,13,1647,0
20090609,13,13.95,13,13.95,4029,0
20090610,14,14.5,14,14.48,4300,0
20090612,13.62,14.8,13.62,14.8,312,0
20090615,14.01,14.3,13.8,14.3,2688,0
20090616,14.3,14.3,13.8,14.3,1088,0
20090617,14.59,14.59,13.9,14.45,910,0
20090618,14.41,14.41,13.89,13.89,1685,0
20090619,13.6,13.6,12.9,13.14,4544,0
20090622,13.45,13.45,13,13.4,4598,0
20090623,12.5,13.3,12.5,13,1465,0
20090624,12.9,12.9,12.5,12.8,7568,0
20090625,12.8,13.1,12.8,12.8,1633,0
20090626,13.09,13.09,12.9,13.07,2538,0
20090629,13.09,13.09,12.75,12.75,2395,0
20090630,12.8,14.86,12.61,14.5,27561,0
20090701,14,14.79,14,14.79,4376,0
20090702,14.79,14.79,14.11,14.69,280,0
20090703,14.7,14.7,14,14.36,694,0
20090706,14,14.49,13.81,14.49,1031,0
20090707,14,14.59,13.8,14.17,1268,0
20090708,14,14,13.7,13.7,1005,0
20090709,14,14.35,13.7,14.2,501,0
20090710,14.19,14.2,13.91,14,900,0
20090713,14.48,14.48,14.15,14.2,719,0
20090714,14.05,14.05,14.05,14.05,2119,0
20090715,14,14,13.5,14,667,0
20090716,13.51,14.39,13.51,14.39,1571,0
20090717,14.05,14.06,14.05,14.06,1378,0
20090720,14.39,14.39,14.1,14.35,354,0
20090721,14.35,14.9,14.35,14.6,24991,0
20090722,14.85,14.9,14.84,14.85,2360,0
20090723,14.86,14.86,14.5,14.85,4102,0
20090724,14.86,14.86,14.85,14.86,3520,0
20090727,14.86,14.86,14.25,14.75,3889,0
20090728,14.75,14.75,14.3,14.74,420,0
20090729,14.06,14.74,14.06,14.74,1380,0
20090730,14.74,14.74,14.13,14.73,592,0
20090731,14.5,14.5,14.25,14.25,4676,0
20090803,14.4,14.4,13.95,13.95,110,0
20090804,14,14.5,14,14.1,1223,0
20090805,14.08,14.2,14.08,14.2,1956,0
20090806,14.2,14.5,14.2,14.5,1796,0
20090807,14.26,14.5,14.26,14.5,7387,0
20090810,14.65,14.73,14.65,14.73,5506,0
20090811,14.4,15.5,14.4,15.5,4520,0
20090812,15.4,15.4,14.8,15.4,3726,0
20090813,15.39,15.39,15.04,15.04,8111,0
20090814,15.39,15.39,15,15.05,954,0
20090817,15.01,15.45,14.75,15.45,1296,0
20090818,15.45,15.5,14.76,15.5,1737,0
20090819,15.35,15.5,15.35,15.5,978,0
20090820,15.9,16.8,15.6,16.8,1472,0
20090821,17.43,17.56,17.43,17.56,556,0
20090824,17.6,17.6,16.65,16.71,1416,0
20090825,17.05,18.38,17.05,18.38,1039,0
20090826,18.9,20.09,18.36,19.5,7503,0
20090827,19.5,19.6,18.21,18.37,31713,0
20090828,19,19.99,18.4,19.99,1685,0
20090831,19.99,19.99,18.8,19.5,6036,0
20090901,19.5,20.08,19.05,19.5,2887,0
20090902,19.1,19.1,18,18.25,2925,0
20090903,18.25,18.25,17.9,18,904,0
20090904,18.1,18.1,17.98,18,2600,0
20090907,17.6,17.6,17.5,17.51,2724,0
20090908,17.61,18.4,17.61,18.4,7643,0
20090909,18.9,19.8,18.4,18.4,485,0
20090910,19.5,19.5,17.53,17.6,4486,0
20090911,17.6,17.78,17.23,17.23,414,0
20090914,17.95,17.95,17.21,17.21,1967,0
20090915,17.21,17.83,17.21,17.83,801,0
20090916,18,18.18,17.83,17.83,1585,0
20090917,18,18.1,18,18.1,1141,0
20090918,18,18,17.5,17.7,2356,0
20090921,18,18,18,18,100,0
20090922,17.9,18,17.9,18,296,0
20090923,17.6,17.6,17.6,17.6,275,0
20090924,17.45,17.9,17.25,17.9,13707,0
20090925,17.6,17.6,17.3,17.3,44625,0
20090928,16.9,17.3,16.65,16.8,1913,0
20090929,16.5,16.5,16.45,16.5,1672,0
20090930,16.5,16.5,16.5,16.5,8550,0
20091001,16.1,16.5,16.01,16.02,8943,0
20091002,15.99,16.02,15.98,16.02,576,0
20091005,16.02,16.02,16.02,16.02,510,0
20091006,16.15,16.9,16.15,16.9,1050,0
20091007,17,17.45,17,17.1,248,0
20091008,17.3,17.3,17.1,17.1,491,0
20091009,17.5,17.79,17.5,17.74,1113,0
20091012,17.7,17.7,17.7,17.7,223,0
20091013,17.71,17.99,17.71,17.99,256,0
20091014,17.99,17.99,17.8,17.8,5471,0
20091015,18,18,17.9,17.99,74,0
20091016,17.99,17.99,17.9,17.9,4122,0
20091019,17.9,17.99,17.5,17.9,3895,0
20091020,17.5,17.5,16.3,17.4,1285,0
20091021,16.1,17.3,16.1,16.7,2233,0
20091022,16.7,17,16.7,17,272,0
20091023,16.62,16.62,16.62,16.62,6872,0
20091026,17,17,16.26,16.26,131,0
20091027,16,16.2,16,16.12,3660,0
20091028,15.8,16.25,15.8,16.15,464,0
20091029,15.85,16.15,15.85,16.13,16855,0
20091030,16.13,16.99,16.13,16.99,530,0
20091102,17,17,16.7,16.7,2082,0
20091103,16.65,16.65,16.65,16.65,19,0
20091104,16.65,16.8,16.65,16.8,558,0
20091105,16.88,16.88,16.46,16.46,1202,0
20091106,16.66,16.66,16.1,16.1,510,0
20091109,16.3,16.3,16.1,16.1,199,0
20091110,16.39,16.39,15.9,16,8480,0
20091112,16.1,16.15,15.98,15.98,9068,0
20091113,15.8,16,15.8,16,11082,0
20091116,16.2,16.2,15.85,16,1078,0
20091117,15.8,15.8,15.8,15.8,64,0
20091118,16.39,16.4,15.99,15.99,102,0
20091119,16,16,15.99,15.99,1654,0
20091120,15.99,15.99,15.8,15.8,568,0
20091123,16,16,16,16,20,0
20091124,15.8,16,15.7,16,687,0
20091125,16,16,16,16,213,0
20091126,16,16,15.5,15.5,326,0
20091127,15.99,15.99,15.1,15.1,672,0
20091130,15.3,16,15.3,16,621,0
20091201,16,16,15.99,15.99,745,0
20091202,15.99,15.99,15.01,15.3,4775,0
20091203,15.74,15.99,15.55,15.55,1080,0
20091204,15.35,15.55,15.35,15.55,36,0
20091207,15.45,15.55,15.45,15.55,386,0
20091208,15.55,15.6,15.2,15.2,4182,0
20091209,15.3,15.3,14.95,14.95,2929,0
20091210,14.95,15,14.9,14.9,1706,0
20091211,15.24,15.24,14.8,14.97,6266,0
20091214,14.8,14.94,14.8,14.94,5250,0
20091215,14.85,14.85,14.35,14.6,3081,0
20091216,14.79,14.8,14.36,14.36,7354,0
20091217,14.8,14.8,13.75,14.19,4064,0
20091218,14.15,15.31,14.15,15,9891,0
20091221,15.4,15.8,15.21,15.68,220108,0
20091222,15.9,15.99,15.69,15.78,21077,0
20091223,15.99,15.99,15.26,15.26,2879,0
20091228,15.18,15.18,14.95,15.1,1594,0
20091229,15.65,15.99,15.65,15.9,1218,0
20091230,16,16.4,15.8,16,4108,0
20091231,16.2,16.2,15.5,15.5,9841,0
20100104,15.9,15.9,15.6,15.8,15866,0
20100105,15.98,16,15.85,15.85,21474,0
20100106,15.86,16,15.75,15.85,5750,0
20100107,15.75,15.78,15.63,15.78,1120,0
20100108,15.85,16,15.85,15.9,3790,0
20100111,16.2,16.2,15.8,16,15260,0
20100112,16.2,16.2,15.35,15.99,6452,0
20100113,15.96,15.96,15.79,15.79,324,0
20100114,15.8,15.8,15.5,15.5,773,0
20100115,15.52,16.05,15.36,16.05,3287,0
20100118,15.9,16.23,15.9,16,645,0
20100119,16.2,16.25,15.95,16.25,5168,0
20100120,16.25,16.25,16,16.19,1321,0
20100121,16.25,16.25,15.75,15.95,2136,0
20100122,15.95,15.95,15.51,15.51,266,0
20100125,15.6,16.02,15.6,15.66,4347,0
20100126,15.66,15.66,15.66,15.66,1157,0
20100127,15.99,15.99,15.66,15.66,2522,0
20100128,15.76,16.01,15.51,16.01,5372,0
20100129,16,16,16,16,115,0
20100201,15.35,16.05,15.34,16.05,3856,0
20100202,16,16,16,16,15802,0
20100203,16,16.05,16,16.05,2411,0
20100204,16.05,16.05,15.5,15.5,3654,0
20100205,15.5,15.9,15.5,15.9,3696,0
20100208,15.9,15.9,15.51,15.8,27822,0
20100209,16,16,15.99,16,700,0
20100210,16,16.15,15.6,16.15,3141,0
20100211,16.15,16.15,15.1,16,1231,0
20100212,16.04,16.04,16,16.04,515,0
20100215,16.04,16.2,15.5,16.2,2800,0
20100216,16.3,16.4,16.3,16.4,583,0
20100217,16.4,17,16.2,17,3994,0
20100218,17.35,17.65,17.35,17.35,18504,0
20100219,17.35,17.35,17.35,17.35,1100,0
20100222,17.6,17.6,17,17.23,791,0
20100223,17.2,17.2,17.1,17.2,999,0
20100224,17.45,17.95,16.9,17.5,1797,0
20100225,17.93,17.95,17.45,17.95,1538,0
20100226,17.01,17.95,17.01,17.95,123038,0
20100301,17.79,17.79,17.65,17.78,10081,0
20100302,16.8,17.85,16.8,17.78,11984,0
20100303,17.95,17.95,17.3,17.5,2272,0
20100304,17.3,18.15,17.3,18,2708,0
20100305,18.29,18.29,18,18,408,0
20100308,18,18.6,17.35,18.6,57275,0
20100309,18.21,19,18.2,19,32075,0
20100310,18.95,18.95,18.78,18.95,27115,0
20100311,18.95,19.3,18.9,19.15,39793,0
20100312,19.15,19.15,19,19.15,2216,0
20100315,19.15,19.15,19,19,294,0
20100316,19.28,19.28,19.28,19.28,214,0
20100317,19.44,19.63,19.35,19.35,45470,0
20100318,19.8,19.8,19.21,19.3,1802,0
20100319,18.8,18.95,18.8,18.9,1459,0
20100322,18.9,18.9,18.15,18.15,363,0
20100323,18.15,18.15,17.2,17.2,754,0
20100324,17.2,17.2,16.65,16.9,4719,0
20100325,17.15,17.15,16.8,17.14,2037,0
20100326,17.3,17.74,17.3,17.35,2329,0
20100329,17.2,18.95,17.2,18.15,22283,0
20100330,18.85,19.19,18.41,18.95,924,0
20100331,18.95,19.19,18.9,18.95,6446,0
20100401,19,19.19,18.7,19.19,12792,0
20100406,18.55,19.1,18.55,19,5136,0
20100407,18.5,19.06,17.7,19,5958,0
20100408,19.13,19.13,18.4,19,4389,0
20100409,19,19,19,19,5329,0
20100412,19.05,19.05,18.45,18.45,3925,0
20100413,18,18.25,17.7,18.23,518,0
20100414,17.8,18.65,17.8,18.63,6023,0
20100415,19,19,18.09,18.1,7436,0
20100416,17.8,17.8,17.8,17.8,1398,0
20100419,17.5,17.5,17,17,6672,0
20100420,17.05,17.5,17.05,17.5,9689,0
20100421,17.15,17.6,16.95,17,3063,0
20100422,16.91,17.45,16.91,17.1,987,0
20100423,17.1,18,17.1,18,865,0
20100426,18,18,17.45,17.8,534,0
20100427,17.6,17.6,17.01,17.4,915,0
20100428,16.8,16.9,16.75,16.75,2307,0
20100429,18,18,16.3,16.59,1292,0
20100430,16.6,16.65,16.3,16.3,709,0
20100504,16.35,16.35,16,16,6066,0
20100505,16.09,16.7,16.09,16.3,600,0
20100506,16.3,16.7,16.3,16.7,1164,0
20100507,16.3,16.3,16.15,16.2,1864,0
20100510,16.7,16.95,16.3,16.3,2139,0
20100511,16.3,16.5,16.3,16.47,36745,0
20100512,16.45,16.45,16.3,16.3,3852,0
20100513,16.85,16.85,15.75,16,9952,0
20100514,16,16,15.3,15.55,2207,0
20100517,15.65,15.65,15.41,15.41,978,0
20100518,15.88,15.89,15.4,15.88,5453,0
20100519,15.46,15.85,15.39,15.85,11101,0
20100520,15.97,15.97,15.25,15.25,2602,0
20100521,15,15,14.3,15,1403,0
20100524,14.7,14.7,14.32,14.32,7908,0
20100525,14.3,14.4,13.9,13.9,1431,0
20100526,14.8,14.8,14.23,14.23,1139,0
20100527,14.45,14.45,13.8,13.8,1438,0
20100528,14.2,14.79,14.2,14.6,2000,0
20100531,14.61,14.65,14.61,14.62,163,0
20100601,14.98,15.45,14.6,14.61,5861,0
20100602,15,15,14.61,14.61,1336,0
20100604,14.65,15.1,14.65,15.1,88,0
20100607,15.2,15.45,15.2,15.21,1600,0
20100608,15.22,15.22,15.22,15.22,788,0
20100609,15.5,15.5,15.02,15.02,738,0
20100610,14.75,15.09,14.6,15.09,4299,0
20100611,15.09,15.09,15.09,15.09,292,0
20100614,14.71,15,14.6,14.61,2888,0
20100615,14.6,14.7,14.6,14.7,339,0
20100616,15,15.45,14.6,14.6,4592,0
20100617,14.62,14.65,14.6,14.65,717,0
20100618,14.6,14.6,14.6,14.6,223,0
20100621,14.6,14.6,14.6,14.6,4162,0
20100622,14.6,14.6,14.6,14.6,3086,0
20100623,15.09,15.09,14.6,14.6,722,0
20100624,14.6,14.6,14.6,14.6,2982,0
20100625,14.9,15.09,14.55,15.09,102263,0
20100628,14.7,14.7,14.62,14.62,867,0
20100629,14.62,14.62,14.6,14.6,3312,0
20100630,14.6,14.6,14.6,14.6,1963,0
20100701,14.6,14.6,14.6,14.6,52,0
20100702,14.6,14.91,14.6,14.91,2804,0
20100705,14.9,14.91,14.9,14.91,571,0
20100706,14.93,15.64,14.93,15.15,54106,0
20100707,15.16,15.6,15.16,15.6,25015,0
20100708,15.6,15.6,15.4,15.5,678,0
20100709,16.1,17.05,16.1,16.5,6939,0
20100712,17.2,17.2,16.8,17.15,4538,0
20100713,17.2,17.39,17.15,17.39,11053,0
20100714,17.5,17.5,17.25,17.45,2472,0
20100715,17.45,17.6,17.45,17.6,2043,0
20100716,17.62,17.64,17.62,17.63,541,0
20100719,17.6,17.75,17.5,17.69,999,0
20100720,17.7,17.7,17.4,17.4,929,0
20100721,17.3,17.3,17.21,17.25,1788,0
20100722,17.25,17.25,16.6,17.18,829,0
20100723,17.2,17.3,17.18,17.25,727,0
20100726,17.74,17.74,17.4,17.4,1667,0
20100727,17.6,17.64,17.6,17.63,1582,0
20100728,17.75,17.75,17.63,17.75,1765,0
20100729,17.8,17.89,17.7,17.8,3522,0
20100730,17.63,17.89,17.63,17.79,531,0
20100802,17.6,17.68,17.5,17.68,1781,0
20100803,17.8,17.8,17.79,17.79,2074,0
20100804,17.8,17.87,17.77,17.87,603,0
20100805,17.9,17.9,17.7,17.9,855,0
20100806,17.86,17.86,17.7,17.85,4414,0
20100809,17.8,17.8,17.5,17.55,1106,0
20100810,17.75,17.75,17.55,17.7,668,0
20100811,17.64,17.64,17.45,17.6,899,0
20100812,17.62,17.62,17.45,17.45,727,0
20100813,17.6,17.6,17,17.17,2440,0
20100816,17.17,17.17,17,17,1759,0
20100817,16.85,16.99,16.5,16.99,883,0
20100818,16.99,16.99,16.99,16.99,164,0
20100819,17.44,17.44,17.44,17.44,10,0
20100820,17.74,17.74,17.2,17.2,177,0
20100823,17,17,16.8,16.8,278,0
20100824,16.82,16.82,16.15,16.16,4708,0
20100825,16.1,16.1,16.1,16.1,350,0
20100826,16,16.3,16,16.3,3899,0
20100827,16.3,16.9,16.3,16.9,622,0
20100830,17,17,16.6,17,182,0
20100831,16.8,17.39,16.35,17.39,5029,0
20100901,17.29,17.29,16.55,17.27,415,0
20100902,17.28,17.28,16.8,17.2,128,0
20100903,17.28,17.28,17,17.1,820,0
20100906,17.29,17.29,17.25,17.25,115,0
20100907,17.2,17.2,16.7,16.7,3003,0
20100908,16.6,17.06,16.6,17.05,315,0
20100909,16.55,16.95,16.5,16.9,325,0
20100910,16.9,16.9,16.43,16.43,2005,0
20100913,16.41,16.41,16.4,16.41,3612,0
20100914,16.35,16.35,16,16,2803,0
20100915,15.8,16,15.79,15.8,2231,0
20100916,15.8,16.39,15.8,16.39,267,0
20100917,16.47,16.47,16.43,16.43,45,0
20100920,16.39,16.67,15.95,16.67,3841,0
20100921,16.7,16.9,16.41,16.8,3010,0
20100922,16.9,16.9,15.95,16.85,7764,0
20100923,16.69,16.69,15.95,16.57,2778,0
20100924,16.79,16.79,16,16.78,604,0
20100927,16.79,16.79,16.01,16.5,592,0
20100928,16.7,16.7,16,16.48,3087,0
20100929,16.48,16.48,16,16.4,1653,0
20100930,16,16.7,16,16.7,2742,0
20101001,16.9,16.9,16,16.59,1145,0
20101004,16.7,16.7,15.97,16.29,4686,0
20101005,16.35,16.35,16,16.35,653,0
20101006,16.35,17.1,16,16.75,6073,0
20101007,16.95,16.95,16.88,16.88,9,0
20101008,16.8,17,16.7,17,823,0
20101011,17.16,17.16,16.16,16.95,428,0
20101012,17,17,16,16.36,1867,0
20101013,16.06,16.5,16.06,16.4,632,0
20101014,16.54,16.54,16.01,16.38,3077,0
20101015,16.36,16.36,16.36,16.36,1,0
20101018,16.38,16.38,16,16.3,4543,0
20101019,16.3,16.3,16,16.3,3446,0
20101020,16.3,16.3,16,16,41743,0
20101021,16,16.3,15.85,16.24,5373,0
20101022,16.24,16.24,16,16.22,814,0
20101025,16.24,16.24,15.8,15.8,1768,0
20101026,16,16,15.8,15.99,1037,0
20101027,16,16.02,15.81,16.01,3190,0
20101028,16.14,16.14,15.91,16.14,551,0
20101029,16.14,16.14,15.81,16.14,1319,0
20101102,16.2,16.44,16.16,16.25,3552,0
20101103,16.5,17,16.5,16.99,6676,0
20101104,17.17,17.35,17.01,17.35,3365,0
20101105,17.4,17.4,17,17.15,1181,0
20101108,17.15,17.29,16.6,16.6,3245,0
20101109,17.06,17.9,17.06,17.63,26757,0
20101110,18.8,19.16,18.45,18.6,62287,0
20101112,18.5,18.59,18.05,18.3,6122,0
20101115,18.29,18.29,18.24,18.28,1310,0
20101116,18.28,18.28,18,18.1,9945,0
20101117,17.92,18.01,17.9,17.96,1233,0
20101118,17.9,18.2,17.71,18.02,2136,0
20101119,18.05,18.06,17.9,17.9,2921,0
20101122,17.97,18.1,17.8,17.82,848,0
20101123,17.82,17.82,17.05,17.54,3079,0
20101124,18,18.21,18,18.07,10417,0
20101125,18.5,18.5,18,18,8056,0
20101126,18.09,18.1,17.92,18.1,8331,0
20101129,18.3,18.47,18.05,18.05,937,0
20101130,18.05,18.05,17.56,18,2365,0
20101201,18.05,18.05,17.2,17.74,302748,0
20101202,17.98,18.1,17.74,17.87,2000,0
20101203,17.9,18,17.86,18,880,0
20101206,18,18.15,17.86,17.9,2254,0
20101207,18.1,18.1,17.92,17.92,1123,0
20101208,18,18,17.75,17.75,356,0
20101209,17.89,17.89,17.68,17.74,315,0
20101210,17.68,17.7,17.3,17.44,5633,0
20101213,17.49,17.5,17.46,17.46,390,0
20101214,17.6,18,17.4,18,1487,0
20101215,18.2,18.2,17.66,17.66,6717,0
20101216,17.66,17.9,17.6,17.9,1132,0
20101217,17.9,17.9,17.6,17.65,1190,0
20101220,17.7,17.78,17.53,17.78,865,0
20101221,17.8,17.8,17.6,17.66,4147,0
20101222,17.77,17.77,17.49,17.74,2633,0
20101223,17.75,17.75,17.48,17.52,733,0
20101227,17.75,17.75,17.41,17.56,171,0
20101228,17.4,17.75,17.4,17.75,1532,0
20101229,17.75,17.75,17.55,17.74,1686,0
20101230,17.75,18.2,17.75,18.2,11627,0
20101231,18.19,18.5,18.14,18.47,17724,0
20110103,18.49,18.49,17.8,18.3,1432,0
20110104,18.29,18.29,18,18.2,646,0
20110105,18.14,18.3,17.85,18.3,1236,0
20110107,18.18,18.3,18.18,18.25,1109,0
20110110,18.5,18.5,18.1,18.1,1377,0
20110111,18.05,18.05,17.9,18,590,0
20110112,17.92,18,17.92,18,1513,0
20110113,18,18.1,17.9,17.9,1086,0
20110114,17.9,17.99,17.26,17.3,3062,0
20110117,17.32,17.52,17.32,17.41,6854,0
20110118,17.63,17.65,17.32,17.32,3426,0
20110119,17.4,17.4,16.5,17,4099,0
20110120,16.98,17.13,16.8,17.1,885,0
20110121,17,17.34,17,17.3,1222,0
20110124,17.34,17.34,17.05,17.11,726,0
20110125,17.1,17.3,17.01,17.01,2119,0
20110126,17,17.01,16.95,17.01,2006,0
20110127,16.86,17.28,16.86,17.1,4282,0
20110128,17.1,17.32,17.1,17.2,6586,0
20110131,16.3,17.15,16.3,17.08,2835,0
20110201,17.19,17.19,16.75,17.07,2386,0
20110202,17.09,17.34,16.92,17.08,4500,0
20110203,16.94,17.32,16.94,17,996,0
20110204,17,17.01,17,17,1038,0
20110207,17.1,17.95,17.1,17.95,2548,0
20110208,18,18,17.86,17.86,381,0
20110209,17.86,17.86,17.2,17.6,2837,0
20110210,17.6,17.86,17.3,17.85,1837,0
20110211,17.45,17.8,16.7,17.8,4495,0
20110214,17.9,17.9,17.25,17.67,1540,0
20110215,17.88,17.88,17.46,17.46,741,0
20110216,17.4,17.4,17.25,17.25,523,0
20110217,17.1,17.25,17.06,17.25,1935,0
20110218,17.15,17.25,17.1,17.25,1103,0
20110221,17.12,17.23,17.12,17.2,2812,0
20110222,17.2,17.25,17.2,17.2,3038,0
20110223,17.2,17.6,17.2,17.46,81488,0
20110224,17.6,17.82,17.59,17.7,743,0
20110225,17.7,17.7,17.62,17.64,110,0
20110228,17.7,17.7,17.45,17.67,3324,0
20110301,17.68,17.68,17.36,17.5,815,0
20110302,17.65,17.87,17.45,17.87,13285,0
20110303,17.85,18,17.51,18,34883,0
20110304,17.95,18.23,17.95,18.23,12410,0
20110307,18.25,18.48,18.01,18.35,72529,0
20110308,18.55,18.6,18.35,18.45,10334,0
20110309,18.49,18.53,18.33,18.46,13111,0
20110310,18.43,18.43,18.05,18.16,1255,0
20110311,18.1,18.1,17.71,17.75,2172,0
20110314,17.7,18.05,17.7,18.05,1363,0
20110315,17.63,18.29,17.63,18.29,1306,0
20110316,18.42,18.42,18.32,18.32,544,0
20110317,18.45,18.45,18.32,18.32,1141,0
20110318,18.45,18.45,18.15,18.15,830,0
20110321,18,18.2,18,18.2,60,0
20110322,18.32,18.69,18.32,18.53,9606,0
20110323,18.55,18.55,18.45,18.55,594,0
20110324,18.58,18.58,18.25,18.25,2127,0
20110325,18.25,18.35,17.95,18.35,6676,0
20110328,18.35,18.41,18.3,18.3,1104,0
20110329,18.38,18.4,18.01,18.39,5841,0
20110330,18.4,18.4,18.35,18.35,1784,0
20110331,18.35,18.35,18.02,18.2,1783,0
20110401,18.35,18.35,18.04,18.28,915,0
20110404,18.31,18.31,17.5,18,768,0
20110405,17.5,17.79,17.5,17.7,2180,0
20110406,17.56,17.8,17.41,17.8,1430,0
20110407,17.98,17.98,17.8,17.8,140,0
20110408,17.7,17.93,17.6,17.8,825,0
20110411,17.6,17.8,17.51,17.51,4330,0
20110412,17.5,17.54,17.2,17.4,12654,0
20110413,17.42,17.74,17.2,17.3,2310,0
20110414,17.4,17.4,16.95,17.35,3726,0
20110415,17.55,17.55,17.21,17.21,100477,0
20110418,17.2,17.35,16.72,17.35,1746,0
20110419,17.3,17.45,17.3,17.45,343,0
20110420,17.44,17.45,17.3,17.34,473,0
20110421,17.49,17.49,17.05,17.05,1070,0
20110426,17.05,17.05,16.65,16.8,2939,0
20110427,16.9,16.9,16.88,16.89,609,0
20110428,16.89,16.9,16.51,16.51,685,0
20110429,16.6,16.6,16.02,16.5,791,0
20110502,16.89,16.89,16.5,16.5,655,0
20110504,16.6,16.6,16.4,16.4,983,0
20110505,16.48,16.49,16.3,16.3,152,0
20110506,16.25,16.25,16,16,4192,0
20110509,16,16,15.76,16,2860,0
20110510,16.01,16.01,15.45,15.9,16224,0
20110511,15.79,15.82,15.79,15.82,105,0
20110512,15.79,16,15.79,15.79,559,0
20110513,15.9,15.9,14.72,14.81,5871,0
20110516,14,14.5,13.9,14.05,10580,0
20110517,14.08,14.15,13.8,13.88,6427,0
20110518,14.15,14.15,13.77,13.83,11223,0
20110519,13.94,13.94,13.36,13.36,5160,0
20110520,13.26,13.59,13.26,13.5,1202,0
20110523,13.49,13.6,13.49,13.55,1753,0
20110524,13.55,13.55,13.51,13.55,70,0
20110525,13.55,13.59,13.55,13.59,1245,0
20110526,13.6,13.6,13.48,13.48,1637,0
20110527,13.45,13.6,13.45,13.6,625,0
20110530,13.66,13.95,13.55,13.55,1078,0
20110531,13.6,13.6,13.55,13.55,181,0
20110601,13.65,13.65,13.55,13.59,1259,0
20110602,13.6,13.65,13.6,13.65,382,0
20110603,13.65,13.69,13.65,13.65,826,0
20110606,13.65,13.95,13.61,13.95,621,0
20110607,13.95,13.95,13.62,13.95,728,0
20110608,13.98,14.33,13.96,14.15,9850,0
20110609,14.15,14.33,14.15,14.33,400,0
20110610,14.41,14.41,14.06,14.41,5580,0
20110613,14.41,14.48,14.24,14.35,1469,0
20110614,14.4,14.4,14.21,14.3,1208,0
20110615,14.36,14.36,13.91,14,5032,0
20110616,14,14,13.6,13.7,2718,0
20110617,13.8,13.8,13.6,13.6,9649,0
20110620,13.6,13.6,13.3,13.35,495,0
20110621,13.35,13.35,12.25,12.95,2444,0
20110622,12.98,12.98,12.28,12.5,5055,0
20110624,12.3,12.4,11.3,11.56,5121,0
20110627,11.56,11.56,10.5,10.66,7549,0
20110628,10.99,11.2,10.6,10.75,2348,0
20110629,10.75,10.89,10.71,10.8,8644,0
20110630,11,11.5,10.95,11,2339,0
20110701,11.1,11.4,10.9,10.9,8511,0
20110704,11,11,10.45,10.59,2718,0
20110705,10.68,10.7,10.25,10.4,1838,0
20110706,10.4,10.4,10.22,10.35,2471,0
20110707,10.3,10.35,10.3,10.3,978,0
20110708,10.3,10.3,10.2,10.28,360,0
20110711,10.28,10.28,10.1,10.1,4607,0
20110712,10.1,10.1,10,10,1700,0
20110713,10.11,10.26,10,10,8780,0
20110714,9.72,9.97,9.71,9.71,71287,0
20110715,9.6,9.6,9.5,9.5,1404,0
20110718,9.28,9.4,9,9.2,2913,0
20110719,9.2,9.2,8.77,8.86,1510,0
20110720,8.6,8.85,8.42,8.85,90273,0
20110721,8.88,8.88,8.44,8.86,4674,0
20110722,8.86,8.86,8.75,8.78,1589,0
20110725,8.75,8.88,8.75,8.88,606,0
20110726,8.85,8.85,8.73,8.84,232,0
20110727,8.84,8.84,8.61,8.62,1542,0
20110728,8.62,8.8,8.41,8.8,7991,0
20110729,8.75,8.75,8.51,8.75,1406,0
20110801,8.75,9.55,8.75,9.1,15179,0
20110802,9.1,9.35,9.1,9.1,1928,0
20110803,9,9.01,8.75,8.85,1590,0
20110804,8.84,8.84,8,8,1439,0
20110805,7.75,7.75,7.42,7.67,2828,0
20110808,7.1,7.35,7.05,7.1,5277,0
20110809,7.1,7.3,6.81,7.1,7899,0
20110810,7.19,7.55,7.19,7.39,1774,0
20110811,7.3,7.8,7.3,7.5,5131,0
20110812,7.8,8,7.8,8,17076,0
20110816,8.8,8.8,8.5,8.6,4297,0
20110817,8.6,8.67,8.6,8.6,1206,0
20110818,8.6,8.6,7.75,7.75,3830,0
20110819,7.75,7.75,7.3,7.7,2826,0
20110822,7.9,8,7.85,7.9,30981,0
20110823,8.08,8.08,7.7,7.9,12742,0
20110824,7.99,7.99,7.66,7.78,155,0
20110825,7.8,7.8,7.63,7.8,676,0
20110826,7.8,7.8,7.77,7.8,18147,0
20110829,7.9,7.9,7.89,7.9,772,0
20110830,8,8.04,7.89,7.9,73435,0
20110831,8,8,7.79,7.79,630,0
20110901,7.71,7.71,7.66,7.7,1310,0
20110902,7.7,7.7,7.33,7.35,962,0
20110905,7,7,6.75,6.85,2897,0
20110906,6.65,6.74,6.6,6.74,1005,0
20110907,6.61,6.8,6.61,6.79,1594,0
20110908,6.74,7.05,6.74,6.92,1074,0
20110909,6.92,7.09,6.92,7.09,105,0
20110912,6.92,6.92,6.56,6.7,2911,0
20110913,6.71,6.71,6.52,6.62,522,0
20110914,6.59,6.59,6.52,6.52,60,0
20110915,6.52,6.52,6.2,6.4,15143,0
20110916,6.4,6.4,6,6.1,5351,0
20110919,6.14,6.14,6.05,6.07,1029,0
20110920,6.06,6.08,6.06,6.08,9045,0
20110921,6.1,6.1,5.99,6,1170,0
20110922,5.93,5.94,5.78,5.78,4215,0
20110923,5.7,5.7,5.6,5.7,6348,0
20110926,5.5,5.6,5.1,5.53,32208,0
20110927,5.56,5.56,5.32,5.43,4501,0
20110928,5.42,5.48,5.4,5.46,7657,0
20110929,5.45,5.45,5.3,5.35,1138,0
20110930,5.35,5.35,5.21,5.3,613,0
20111003,5.3,5.3,5.01,5.01,12190,0
20111004,5,5.01,4.91,5,1715,0
20111005,5,5.14,4.96,5.09,31700,0
20111006,5.15,5.18,5,5.15,14159,0
20111007,5.29,5.29,5.12,5.15,5330,0
20111010,5.19,5.19,5.11,5.16,3375,0
20111011,5.15,5.2,5.05,5.13,12281,0
20111012,5.2,5.33,5.1,5.11,153733,0
20111013,5.12,5.33,5.11,5.11,77697,0
20111014,5.27,5.7,5.27,5.7,26920,0
20111017,5.81,7,5.81,6.14,32561,0
20111018,6.14,6.14,5.7,5.73,22155,0
20111019,5.75,5.9,5.58,5.65,11690,0
20111020,5.6,5.6,5.41,5.57,122951,0
20111021,5.63,5.85,5.37,5.85,16747,0
20111024,5.89,6.05,5.8,6.05,7534,0
20111025,6.09,6.14,5.77,5.77,5104,0
20111026,5.8,5.83,5.67,5.67,1791,0
20111027,5.7,6.25,5.7,6.16,143678,0
20111028,6.46,6.48,6.12,6.12,19298,0
20111031,6.2,6.2,6,6.05,4040,0
20111102,5.87,6.01,5.6,5.8,12776,0
20111103,5.75,6.1,5.75,6.1,10136,0
20111104,6.19,6.19,5.95,6.13,3385,0
20111107,6.14,6.2,6.1,6.1,2008,0
20111108,6.1,6.16,6,6.1,8217,0
20111109,6.1,6.1,5.9,5.9,12330,0
20111110,5.79,5.8,5.79,5.8,2608,0
20111114,5.95,5.95,5.82,5.82,5141,0
20111115,5.61,5.61,5.39,5.5,24980,0
20111116,5.46,5.46,5.41,5.44,8280,0
20111117,5.46,5.46,5.31,5.43,1795,0
20111118,5.54,5.54,5.12,5.12,6749,0
20111121,5.1,5.1,4.87,4.87,7501,0
20111122,4.87,4.93,4.51,4.52,6690,0
20111123,4.44,4.7,4.01,4.44,43723,0
20111124,4.44,4.44,4.42,4.42,454,0
20111125,4.44,4.44,4.38,4.39,312,0
20111128,4.4,4.4,4.01,4.21,25056,0
20111129,4.16,4.39,4.15,4.39,99123,0
20111130,4.39,4.5,4.22,4.49,7696,0
20111201,4.5,4.6,4.2,4.39,13791,0
20111202,4.37,4.37,4.25,4.32,3820,0
20111205,4.33,4.34,4.16,4.2,120772,0
20111206,4.2,4.3,4.2,4.29,3029,0
20111207,4.3,4.3,4.05,4.2,55866,0
20111208,4.21,4.21,4,4.05,6636,0
20111209,4.06,4.12,3.8,4.12,9093,0
20111212,4.05,4.17,4.05,4.17,216884,0
20111213,4.2,4.3,4.2,4.29,11708,0
20111214,4.3,4.38,4.22,4.3,8207,0
20111215,4.35,4.35,4.25,4.3,13205,0
20111216,4.34,4.38,4.24,4.3,7969,0
20111219,4.35,4.38,4.28,4.28,8321,0
20111220,4.35,4.35,4.31,4.35,9992,0
20111221,4.43,4.43,4.4,4.41,10527,0
20111222,4.43,4.49,4.4,4.45,5395,0
20111223,4.5,4.5,4.46,4.46,570,0
20111227,4.45,4.45,4.36,4.4,5157,0
20111228,4.4,4.4,4.37,4.4,4106,0
20111229,4.37,4.4,4.35,4.4,4753,0
20111230,4.4,4.4,4.39,4.4,1611,0
20120102,4.38,4.38,4.36,4.36,991,0
20120103,4.36,4.39,4.3,4.39,4167,0
20120104,4.39,4.39,4.27,4.27,1472,0
20120105,4.3,4.37,4.22,4.29,1657,0
20120109,4.37,4.37,4.35,4.37,1479,0
20120110,4.37,4.49,4.37,4.48,964,0
20120111,4.48,4.82,4.47,4.82,18800,0
20120112,4.8,5.19,4.8,5.09,14223,0
20120113,5.09,5.24,5,5,6259,0
20120116,4.99,5.09,4.99,5.08,2005,0
20120117,5.09,5.52,5.09,5.5,10264,0
20120118,5.8,5.88,5.72,5.83,15527,0
20120119,5.83,5.97,5.82,5.84,12223,0
20120120,5.84,5.89,5.7,5.7,4555,0
20120123,5.65,5.65,5.3,5.64,5367,0
20120124,5.61,6.14,5.59,6.14,18113,0
20120125,6.14,6.55,6.14,6.55,7667,0
20120126,6.8,7,6.78,6.88,11112,0
20120127,6.91,7.15,6.9,7.15,14938,0
20120130,7.07,7.2,7.05,7.2,5435,0
20120131,7.19,7.38,7.14,7.3,22317,0
20120201,7.3,7.3,7,7.24,12872,0
20120202,7.2,7.3,7.2,7.3,113106,0
20120203,7.23,7.36,7.1,7.3,15412,0
20120206,7.15,7.38,7.15,7.29,4833,0
20120207,7.29,7.35,7.08,7.2,2538,0
20120208,7.27,7.34,7.27,7.31,5478,0
20120209,7.31,7.31,7.15,7.25,9176,0
20120210,7.27,7.27,7.01,7.18,6975,0
20120213,7.17,7.7,7.17,7.7,19100,0
20120214,8.03,8.03,7.34,7.59,15412,0
20120215,7.59,8.08,7.59,8.08,16811,0
20120216,8.07,8.07,7.85,8,29041,0
20120217,8.1,8.7,8.09,8.2,115373,0
20120220,8.59,8.89,8.5,8.79,7745,0
20120221,8.89,8.9,8.22,8.22,13434,0
20120222,8.2,8.2,7.8,8,15234,0
20120223,7.91,8.35,7.91,8.2,13169,0
20120224,8.2,8.3,8.05,8.05,11841,0
20120227,8.09,8.09,7.92,7.99,1222,0
20120228,7.99,7.99,7.91,7.91,783,0
20120229,7.56,7.61,7.14,7.15,12049,0
20120301,6.91,7.57,6.87,7.5,412079,0
20120302,7.35,7.5,7.35,7.49,11182,0
20120305,7.45,7.57,7.37,7.43,39155,0
20120306,7.43,7.43,7.11,7.13,41830,0
20120307,7.19,7.3,7.05,7.3,2110,0
20120308,7.3,7.48,7.28,7.47,6166,0
20120309,7.47,7.47,7.35,7.4,2882,0
20120312,7.4,7.4,7.15,7.2,1144,0
20120313,7.25,7.25,7.15,7.2,4082,0
20120314,7.2,7.37,7.2,7.2,4757,0
20120315,7.2,7.25,7.2,7.2,7538,0
20120316,7.08,7.08,6.7,6.73,9521,0
20120319,6.89,6.99,6.8,6.99,45318,0
20120320,6.85,6.99,6.8,6.99,2016,0
20120321,6.8,6.8,6.5,6.6,11652,0
20120322,6.65,6.65,6.38,6.47,5172,0
20120323,6.26,6.64,6.26,6.58,10701,0
20120326,6.58,6.58,6.4,6.54,9559,0
20120327,6.55,6.68,6.55,6.68,80731,0
20120328,6.69,6.92,6.68,6.92,1773,0
20120329,6.8,7,6.75,6.99,2062,0
20120330,7.05,7.05,6.78,6.97,1872,0
20120402,6.98,6.99,6.93,6.99,1776,0
20120403,6.98,6.98,6.8,6.8,326,0
20120404,6.85,6.85,6.3,6.42,6124,0
20120405,6.3,6.59,6.3,6.42,21220,0
20120410,6.3,6.44,6,6.09,4180,0
20120411,5.84,6.09,5.84,6.09,4117,0
20120412,6.09,6.09,6,6.07,680,0
20120413,6.09,6.1,6,6,60146,0
20120416,6.11,6.19,6.11,6.18,310,0
20120417,6.1,6.31,6.1,6.1,1975,0
20120418,6.11,6.47,6.11,6.4,2954,0
20120419,6.48,6.66,6.48,6.5,32615,0
20120420,6.67,6.67,6.47,6.58,164,0
20120423,6.54,6.54,5.9,6.16,7851,0
20120424,5.61,6.49,5.61,6.49,8619,0
20120425,6.21,6.3,5.99,5.99,66550,0
20120426,5.98,5.98,5.6,5.63,5336,0
20120427,5.56,5.99,5.55,5.99,145475,0
20120430,6,6.14,6,6.1,411,0
20120502,6.15,6.19,6.04,6.1,10131,0
20120504,6.16,6.18,6.12,6.18,14002,0
20120507,6.1,6.1,5.83,6,930,0
20120508,6.07,6.07,5.9,5.9,40530,0
20120509,5.93,5.93,5.81,5.82,571,0
20120510,5.8,5.82,5.69,5.8,926,0
20120511,5.67,5.83,5.67,5.7,70671,0
20120514,5.7,5.7,5.59,5.68,9279,0
20120515,5.7,5.7,5.64,5.64,113,0
20120516,5.52,5.52,5.1,5.3,8252,0
20120517,5.15,5.15,4.92,4.92,3873,0
20120518,4.92,5.3,4.68,5.29,61013,0
20120521,5.26,6,5.26,5.99,15950,0
20120522,5.99,6.16,5.98,5.98,8668,0
20120523,5.91,5.91,5.8,5.8,8490,0
20120524,5.8,5.8,5.6,5.6,2535,0
20120525,5.68,5.68,5.5,5.5,2400,0
20120528,5.5,5.5,5.3,5.45,952,0
20120529,5.5,5.5,5.33,5.33,2288,0
20120530,5.39,5.39,5.07,5.1,7864,0
20120531,5,5,4.73,5,10633,0
20120601,4.95,5.22,4.85,4.95,24727,0
20120604,4.93,4.93,4.55,4.67,23590,0
20120605,4.52,4.62,4.37,4.43,27668,0
20120606,4.42,4.42,4.3,4.3,2407,0
20120608,4.25,4.61,4.25,4.61,6697,0
20120611,4.61,4.86,4.6,4.8,2926,0
20120612,4.8,5.01,4.8,4.92,8415,0
20120613,5,5.4,5,5.4,7026,0
20120614,5.4,5.9,5.4,5.88,4816,0
20120615,5.95,6.2,5.89,6.19,13459,0
20120618,6.2,6.2,6.19,6.19,5030,0
20120619,6.2,6.2,6.1,6.18,717,0
20120620,6.18,6.18,5.7,5.7,1104,0
20120621,5.7,5.78,5.35,5.35,4291,0
20120622,5.4,5.41,5,5.08,5757,0
20120625,5,5,4.81,4.81,2949,0
20120626,4.81,5.07,4.68,4.98,4239,0
20120627,5.2,5.29,4.89,4.89,5357,0
20120628,4.89,5.21,4.6,4.67,25064,0
20120629,4.7,4.7,4.21,4.24,55207,0
20120702,4.23,4.23,3.68,3.8,39917,0
20120703,3.84,3.9,3.46,3.54,38282,0
20120704,3.55,3.55,3.35,3.45,12886,0
20120705,3.46,3.69,3.43,3.69,106920,0
20120706,3.69,3.88,3.69,3.82,20488,0
20120709,3.79,3.99,3.76,3.99,8345,0
20120710,4.11,4.11,3.9,3.98,2576,0
20120711,3.97,3.97,3.7,3.75,18054,0
20120712,3.7,3.7,3.6,3.61,28384,0
20120713,3.64,3.69,3.63,3.67,3000,0
20120716,3.69,3.7,3.64,3.67,4627,0
20120717,3.68,3.68,3.6,3.64,3067,0
20120718,3.6,3.82,3.6,3.82,6710,0
20120719,3.83,3.83,3.7,3.7,857,0
20120720,3.7,3.7,3.65,3.67,581,0
20120723,3.6,3.62,3.5,3.62,4146,0
20120724,3.62,3.62,3.52,3.6,330,0
20120725,3.53,3.6,3.53,3.6,2007,0
20120726,3.6,3.62,3.42,3.5,5296,0
20120727,3.53,3.58,3.44,3.57,3622,0
20120730,3.56,3.58,3.56,3.58,101,0
20120731,3.58,3.58,3.4,3.5,4530,0
20120801,3.48,3.48,3.15,3.36,17989,0
20120802,3.36,3.65,3.3,3.36,20263,0
20120803,3.46,3.46,3.15,3.28,20994,0
20120806,3.27,3.27,3.27,3.27,641,0
20120807,3.27,3.43,3.27,3.43,285,0
20120808,3.46,3.59,3.43,3.53,2338,0
20120809,3.53,3.53,3.53,3.53,1,0
20120810,3.53,3.53,3.53,3.53,1,0
20120813,3.48,3.58,3.48,3.58,1600,0
20120814,3.57,3.57,3.44,3.44,344,0
20120816,3.44,3.46,3.44,3.46,519,0
20120817,3.47,3.47,3.47,3.47,115,0
20120820,3.53,3.53,3.41,3.48,3226,0
20120821,3.49,3.49,3.39,3.49,1050,0
20120822,3.53,3.53,3.43,3.5,4301,0
20120823,3.5,3.56,3.44,3.56,461,0
20120824,3.56,3.7,3.56,3.7,5745,0
20120827,3.73,3.73,3.6,3.69,8569,0
20120828,3.58,3.64,3.5,3.59,6832,0
20120829,3.6,3.6,3.44,3.6,4086,0
20120830,3.6,3.64,3.5,3.59,1392,0
20120831,3.5,3.59,3.35,3.55,11811,0
20120903,3.55,3.55,3.5,3.55,2800,0
20120904,3.58,3.58,3.53,3.53,40,0
20120905,3.27,3.45,3.27,3.43,9863,0
20120906,3.42,3.46,3.31,3.43,3910,0
20120907,3.4,3.63,3.4,3.49,6503,0
20120910,3.5,3.71,3.5,3.6,23244,0
20120911,3.6,3.66,3.48,3.58,2139,0
20120912,3.59,3.63,3.59,3.6,680,0
20120913,3.6,3.6,3.6,3.6,50,0
20120914,3.55,3.61,3.52,3.6,14323,0
20120917,3.61,3.61,3.52,3.59,350,0
20120918,3.6,3.6,3.5,3.52,1451,0
20120919,3.5,3.6,3.39,3.55,48051,0
20120920,3.55,3.55,3.3,3.33,14860,0
20120921,3.33,3.44,3.33,3.44,8445,0
20120924,3.49,3.58,3.49,3.55,7314,0
20120925,3.56,3.56,3.5,3.56,2459,0
20120926,3.6,3.6,3.5,3.59,4958,0
20120927,3.59,3.79,3.51,3.79,3737,0
20120928,3.79,3.79,3.69,3.69,7923,0
20121001,3.69,3.72,3.67,3.7,86934,0
20121002,3.66,3.76,3.66,3.7,3476,0
20121003,3.7,3.7,3.58,3.69,1912,0
20121004,3.69,3.69,3.51,3.64,4149,0
20121005,3.66,3.66,3.6,3.64,1149,0
20121008,3.64,3.68,3.63,3.68,1107,0
20121009,3.68,3.9,3.68,3.7,9093,0
20121010,3.75,3.75,3.61,3.7,741,0
20121011,3.7,3.71,3.67,3.7,1441,0
20121012,3.67,3.79,3.67,3.7,14391,0
20121015,3.7,3.7,3.68,3.7,31043,0
20121016,3.7,3.7,3.61,3.69,7613,0
20121017,3.69,3.7,3.61,3.7,2657,0
20121018,3.7,3.7,3.65,3.7,3195,0
20121019,3.72,3.72,3.67,3.67,25002,0
20121022,3.7,3.7,3.67,3.7,3037,0
20121023,3.67,3.69,3.59,3.65,5569,0
20121024,3.6,3.64,3.52,3.56,2597,0
20121025,3.57,3.57,3.57,3.57,60,0
20121026,3.55,3.59,3.5,3.59,2134,0
20121029,3.6,3.6,3.42,3.46,7050,0
20121030,3.42,3.53,3.3,3.53,11335,0
20121031,3.53,3.7,3.51,3.64,732,0
20121102,3.64,3.7,3.47,3.55,4756,0
20121105,3.53,3.67,3.53,3.59,1868,0
20121106,3.63,3.63,3.55,3.6,8505,0
20121107,3.63,3.66,3.59,3.6,2183,0
20121108,3.58,3.63,3.58,3.6,3640,0
20121109,3.58,3.63,3.58,3.58,3148,0
20121112,3.6,3.6,3.59,3.59,550,0
20121113,3.55,3.62,3.36,3.55,6097,0
20121114,3.42,3.55,3.36,3.55,4489,0
20121115,3.5,3.54,3.19,3.42,9818,0
20121116,3.22,3.41,3.22,3.32,2757,0
20121119,3.38,3.38,3.38,3.38,200,0
20121120,3.41,3.48,3.4,3.47,7032,0
20121121,3.48,3.49,3.4,3.47,1626,0
20121122,3.5,3.5,3.45,3.49,2361,0
20121123,3.49,3.49,3.41,3.49,475,0
20121126,3.49,3.49,3.4,3.48,2335,0
20121127,3.4,3.45,3.4,3.45,1456,0
20121128,3.44,3.44,3.28,3.37,6664,0
20121129,3.37,3.48,3.17,3.17,10815,0
20121130,3.25,3.48,3.25,3.45,6750,0
20121203,3.48,3.6,3.42,3.6,5780,0
20121204,3.58,3.58,3.48,3.55,3012,0
20121205,3.55,3.59,3.43,3.59,4730,0
20121206,3.59,3.59,3.43,3.57,1888,0
20121207,3.57,3.6,3.42,3.55,3868,0
20121210,3.57,3.6,3.5,3.57,947,0
20121211,3.58,3.58,3.52,3.58,710,0
20121212,3.58,3.58,3.41,3.55,8270,0
20121213,3.55,3.89,3.45,3.89,253078,0
20121214,3.9,4.17,3.9,3.99,18497,0
20121217,4.09,4.09,3.78,3.86,15835,0
20121218,3.91,3.91,3.76,3.8,2361,0
20121219,3.83,3.9,3.83,3.89,1180,0
20121220,3.89,3.9,3.8,3.86,8609,0
20121221,3.83,3.83,3.8,3.8,510,0
20121227,3.8,3.83,3.6,3.82,20277,0
20121228,3.82,3.9,3.74,3.9,46551,0
20130102,3.89,3.89,3.75,3.84,754,0
20130103,3.79,3.85,3.7,3.8,68483,0
20130104,3.8,3.8,3.72,3.78,905,0
20130107,3.75,3.78,3.7,3.74,1875,0
20130108,3.74,3.74,3.6,3.69,1304,0
20130109,3.7,3.72,3.69,3.71,25844,0
20130110,3.75,3.79,3.7,3.7,8316,0
20130111,3.7,3.76,3.7,3.75,15491,0
20130114,3.73,3.77,3.73,3.75,12775,0
20130115,3.75,3.76,3.62,3.68,8024,0
20130116,3.67,3.73,3.64,3.73,4860,0
20130117,3.71,3.76,3.67,3.75,1519,0
20130118,3.76,3.76,3.73,3.76,162553,0
20130121,3.78,4.56,3.78,4.32,285537,0
20130122,4.26,4.3,4.17,4.21,11913,0
20130123,4.24,4.25,4.13,4.19,7957,0
20130124,4.11,4.44,4.11,4.35,76452,0
20130125,4.35,4.35,4.25,4.32,7746,0
20130128,4.32,4.58,4.29,4.52,43017,0
20130129,4.55,4.58,4.43,4.55,27390,0
20130130,4.56,4.74,4.35,4.52,169526,0
20130131,4.49,4.49,4.2,4.42,36526,0
20130201,4.3,4.37,4.14,4.27,14695,0
20130204,4.15,4.36,3.99,4.28,34890,0
20130205,4.28,4.38,4.23,4.37,7592,0
20130206,4.38,4.4,4.3,4.33,6379,0
20130207,4.32,4.4,4.22,4.28,11207,0
20130208,4.28,4.28,4.13,4.28,14998,0
20130211,4.3,4.47,4.29,4.39,11225,0
20130212,4.39,4.49,4.38,4.46,108651,0
20130213,4.48,4.58,4.38,4.42,36030,0
20130214,4.42,4.48,4.38,4.39,49328,0
20130215,4.42,4.48,4.38,4.45,11741,0
20130218,4.45,4.65,4.45,4.65,85088,0
20130219,4.65,4.87,4.57,4.87,44049,0
20130220,4.9,4.9,4.65,4.65,14330,0
20130221,4.55,4.75,4.51,4.73,19340,0
20130222,4.7,4.81,4.7,4.79,32141,0
20130225,4.78,4.94,4.78,4.9,39783,0
20130226,4.9,5.16,4.9,5.08,36579,0
20130227,5.08,5.15,4.86,4.97,18960,0
20130228,4.91,5.05,4.91,4.97,10845,0
20130301,4.88,4.98,4.88,4.98,3758,0
20130304,4.99,4.99,4.79,4.8,25680,0
20130305,4.84,4.84,4.67,4.7,8566,0
20130306,4.71,4.81,4.71,4.8,8776,0
20130307,4.79,4.88,4.79,4.79,6315,0
20130308,4.79,4.79,4.57,4.74,18847,0
20130311,4.89,4.89,4.7,4.75,11325,0
20130312,4.76,4.8,4.69,4.69,6035,0
20130313,4.7,4.74,4.37,4.62,44691,0
20130314,4.59,4.6,4.46,4.58,11663,0
20130315,4.55,4.7,4.42,4.55,32812,0
20130318,4.68,4.74,4.67,4.74,3804,0
20130319,4.67,4.74,4.65,4.71,14733,0
20130320,4.71,4.74,4.71,4.72,8774,0
20130321,4.7,4.7,4.45,4.63,3778,0
20130322,4.47,4.5,4.25,4.48,15858,0
20130325,4.51,4.51,4.32,4.39,4320,0
20130326,4.28,4.37,3.99,4.11,30940,0
20130327,4.3,4.3,4.02,4.21,8328,0
20130328,4.27,4.34,4.21,4.28,11707,0
20130402,4.18,4.18,4.09,4.16,31627,0
20130403,4.16,4.16,4.12,4.12,22413,0
20130404,4.12,4.12,4,4,6276,0
20130405,4.12,4.18,4,4,11447,0
20130408,3.9,4.1,3.9,4.01,2138,0
20130409,4.04,4.13,4.04,4.05,4325,0
20130410,4.02,4.02,3.77,3.79,41702,0
20130411,3.8,3.82,3.67,3.8,18001,0
20130412,3.8,3.8,3.65,3.69,16435,0
20130415,3.66,3.71,3.65,3.71,7171,0
20130417,3.73,3.73,3.6,3.67,3059,0
20130418,3.61,3.61,3.47,3.47,1835,0
20130419,3.52,3.52,3.3,3.51,25607,0
20130422,3.58,3.58,3.26,3.45,17629,0
20130423,3.3,3.42,3.3,3.4,2800,0
20130424,3.42,3.48,3.4,3.46,4850,0
20130425,3.45,3.48,3.35,3.35,3097,0
20130426,3.35,3.44,3.25,3.44,17217,0
20130429,3.47,3.54,3.47,3.51,10020,0
20130430,3.51,3.51,3.5,3.5,693,0
20130502,3.5,3.5,3.49,3.49,45,0
20130506,3.49,3.49,3.26,3.4,5811,0
20130507,3.32,3.5,3.32,3.48,3201,0
20130508,3.48,3.53,3.45,3.53,5108,0
20130509,3.6,3.65,3.57,3.57,18102,0
20130510,3.6,3.66,3.57,3.66,5875,0
20130513,3.66,3.86,3.65,3.8,7418,0
20130514,3.82,3.94,3.81,3.94,2811,0
20130515,4.01,4.4,4.01,4.4,10710,0
20130516,4.45,4.46,4.29,4.46,22386,0
20130517,4.49,4.49,4.36,4.48,11031,0
20130520,4.4,4.41,4.35,4.4,114994,0
20130521,4.4,4.4,4.3,4.4,107183,0
20130522,4.32,4.32,4.32,4.32,87,0
20130523,4.32,4.32,3.98,4.29,12227,0
20130524,4.29,4.29,4.17,4.28,580,0
20130527,3.98,4.39,3.98,4.39,5445,0
20130528,4.25,4.39,4.25,4.3,779,0
20130529,4.47,4.47,4.22,4.29,2728,0
20130531,4.28,4.4,4.28,4.32,760,0
20130603,4.41,4.41,4.32,4.39,130,0
20130604,4.37,4.37,4.19,4.33,1235,0
20130605,4.26,4.31,4.26,4.31,200,0
20130606,4.23,4.25,4.23,4.24,1332,0
20130607,4.24,4.24,4.07,4.2,1967,0
20130610,4.11,4.44,4.11,4.44,13341,0
20130611,4.28,4.43,4.28,4.4,1341,0
20130612,4.39,4.39,4.16,4.25,18902,0
20130613,4.1,4.45,4.1,4.39,61254,0
20130614,4.32,4.46,4.32,4.46,3944,0
20130617,4.46,4.48,4.19,4.48,6162,0
20130618,4.49,4.55,4.4,4.55,51562,0
20130619,4.58,4.74,4.58,4.74,6657,0
20130620,4.85,4.85,4.37,4.72,12493,0
20130621,4.33,4.6,4.33,4.53,3698,0
20130624,4.3,4.39,4.3,4.38,2220,0
20130625,4.33,4.39,4.33,4.39,1252,0
20130626,4.35,4.35,4.33,4.33,250,0
20130627,4.36,4.43,4.15,4.21,8925,0
20130628,4.21,4.21,3.82,4.18,20456,0
20130701,4.17,4.17,4,4.02,9421,0
20130702,4,4.15,4,4.15,2640,0
20130703,4.05,4.27,4.05,4.27,1101,0
20130704,4.25,4.3,4.15,4.18,30626,0
20130705,4.18,4.18,4.12,4.12,170,0
20130708,4.14,4.15,4.03,4.15,8622,0
20130709,4.18,4.2,4.1,4.1,6680,0
20130710,4.12,4.15,4.05,4.15,1224,0
20130711,4.15,4.15,4.07,4.1,3270,0
20130712,4.13,4.13,4.02,4.08,5199,0
20130715,4.05,4.1,4.05,4.1,200,0
20130716,4.16,4.2,4.08,4.18,5720,0
20130717,4.2,4.2,4.1,4.18,160,0
20130718,4.15,4.15,4.15,4.15,50,0
20130722,4.05,4.05,3.94,3.95,7532,0
20130723,3.9,3.92,3.9,3.92,193,0
20130724,3.99,4.11,3.97,4.01,7836,0
20130725,4.14,4.2,4.14,4.2,3889,0
20130726,4.2,4.2,4.15,4.17,289,0
20130729,4.19,4.2,4.19,4.2,443,0
20130730,4.2,4.2,4.14,4.14,632,0
20130731,4.1,4.1,4.08,4.08,1574,0
20130801,4.1,4.1,4.01,4.02,1966,0
20130802,4.02,4.1,4.02,4.1,2881,0
20130805,4.1,4.1,4.02,4.1,4147,0
20130806,4.11,4.2,4.1,4.2,43994,0
20130807,4.16,4.4,4.16,4.4,13627,0
20130808,4.7,4.7,4.6,4.64,3620,0
20130809,4.64,4.7,4.35,4.6,9873,0
20130812,4.64,4.65,4.45,4.45,3198,0
20130813,4.47,4.47,4.38,4.4,7443,0
20130814,4.4,4.7,4.4,4.7,7782,0
20130816,4.75,4.75,4.6,4.6,410,0
20130819,4.6,4.8,4.6,4.8,18026,0
20130820,4.86,4.88,4.8,4.86,5528,0
20130821,4.86,4.86,4.7,4.73,1252,0
20130822,4.81,4.81,4.73,4.79,11595,0
20130823,4.8,4.85,4.75,4.8,3844,0
20130826,4.8,4.99,4.8,4.9,25100,0
20130827,4.98,4.98,4.9,4.9,1023,0
20130828,4.9,4.9,4.89,4.9,2608,0
20130829,4.9,4.9,4.83,4.83,10703,0
20130830,4.9,4.9,4.41,4.84,32742,0
20130902,4.66,4.66,4.65,4.65,762,0
20130903,4.7,4.91,4.7,4.91,10190,0
20130904,4.93,4.95,4.85,4.95,2202,0
20130905,4.95,4.95,4.78,4.9,26026,0
20130906,4.82,4.89,4.82,4.89,2261,0
20130909,4.85,4.89,4.85,4.89,880,0
20130910,4.89,5.18,4.8,5.16,24738,0
20130911,5.2,5.39,5.2,5.35,13836,0
20130912,5.35,5.35,5.33,5.33,1474,0
20130913,5.6,6.16,5.6,6.02,127403,0
20130916,6.5,6.5,6.21,6.46,81727,0
20130917,6.48,6.86,6.36,6.77,95994,0
20130918,6.77,6.77,6.55,6.59,29081,0
20130919,6.58,6.89,6.48,6.71,66293,0
20130920,6.77,6.77,6.7,6.71,5506,0
20130923,6.63,6.63,6.41,6.41,11640,0
20130924,6.41,6.41,6.25,6.29,17339,0
20130925,6.29,6.41,6.2,6.36,15010,0
20130926,6.3,6.3,6.2,6.3,20517,0
20130927,6.37,6.37,6.2,6.23,3033,0
20130930,6.2,6.28,5.9,6.27,31055,0
20131001,6.21,6.21,6.1,6.17,880,0
20131002,6.17,6.17,6,6.1,5322,0
20131003,6.06,6.24,6.05,6.17,5803,0
20131004,6.17,6.34,6.1,6.34,4488,0
20131007,6.33,6.33,6.07,6.19,2198,0
20131008,6.15,6.2,6.11,6.11,2185,0
20131009,6.09,6.11,6.07,6.1,2248,0
20131010,6.06,6.4,5.85,6.4,29143,0
20131011,6.4,6.4,6.27,6.38,8264,0
20131014,6.4,6.4,6.31,6.38,23863,0
20131015,6.39,6.4,6.25,6.32,3845,0
20131016,6.28,6.32,6.26,6.32,5241,0
20131017,6.32,6.32,6.22,6.25,3079,0
20131018,6.27,6.35,6.2,6.35,6721,0
20131021,6.28,6.4,6.13,6.4,10151,0
20131022,6.4,6.66,6.31,6.57,46599,0
20131023,6.55,6.65,6.5,6.6,11429,0
20131024,6.7,6.7,6.6,6.7,16704,0
20131025,6.7,6.8,6.63,6.69,20592,0
20131028,6.65,7,6.64,6.95,41928,0
20131029,6.95,7.04,6.9,7,46122,0
20131030,7.05,7.19,7,7.01,31192,0
20131031,6.91,6.97,6.9,6.97,2426,0
20131104,7.03,7.1,7,7.05,10366,0
20131105,7.01,7.03,7.01,7.01,6993,0
20131106,7,7.05,6.84,7.05,12428,0
20131107,7.05,7.1,6.96,7.1,18930,0
20131108,7.08,7.08,6.85,6.87,4115,0
20131112,6.86,6.98,6.61,6.98,6254,0
20131113,6.98,7,6.94,7,5541,0
20131114,7,7.01,6.92,7,31541,0
20131115,7.01,7.49,7,7.35,71234,0
20131118,7.5,7.5,7.36,7.4,14185,0
20131119,7.32,7.85,7.32,7.85,54408,0
20131120,7.85,7.87,7.55,7.78,8116,0
20131121,7.74,7.74,7.61,7.69,4073,0
20131122,7.69,7.82,7.69,7.79,2487,0
20131125,7.79,7.84,7.79,7.8,2565,0
20131126,7.79,7.86,7.22,7.6,8346,0
20131127,7.4,7.6,7.35,7.35,24726,0
20131128,7.35,7.5,7.14,7.27,3387,0
20131129,7.27,7.27,7.05,7.26,20291,0
20131202,7.36,7.4,7.25,7.26,13573,0
20131203,7.26,7.26,7.12,7.25,4873,0
20131204,7.12,7.15,7.02,7.15,7715,0
20131205,7.12,7.25,7.12,7.17,14802,0
20131206,7.1,7.1,6.4,7.09,44945,0
20131209,7.09,7.12,7.02,7.12,7039,0
20131210,7.13,7.13,7,7.12,18759,0
20131211,7.13,7.25,7.02,7.2,4593,0
20131212,7.24,7.24,6.96,7.15,20406,0
20131213,7.05,7.2,7.02,7.2,6566,0
20131216,7.2,7.2,7.03,7.05,1765,0
20131217,7.05,7.05,6.8,6.8,2709,0
20131218,6.89,6.94,6.71,6.93,3175,0
20131219,6.85,6.93,6.85,6.93,1499,0
20131220,6.93,6.93,6.5,6.89,36381,0
20131223,6.98,6.98,6.56,6.93,16173,0
20131227,6.93,6.93,6.93,6.93,800,0
20131230,6.9,7,6.79,6.89,1865,0
20140102,7.03,7.03,6.95,6.98,964,0
20140103,6.98,7.02,6.79,7.01,1769,0
20140107,7,7,6.81,6.86,1841,0
20140108,6.85,6.99,6.85,6.99,4120,0
20140109,6.95,6.95,6.93,6.93,473,0
20140110,6.94,7.3,6.88,7.3,14876,0
20140113,7,7.29,7,7.29,2271,0
20140114,7.05,7.2,7.05,7.2,310,0
20140115,7.2,7.24,7.1,7.1,1849,0
20140116,7.11,7.15,7.1,7.1,2566,0
20140117,7.11,7.11,7.1,7.1,544,0
20140120,7.1,7.14,7.1,7.1,3942,0
20140121,7.1,7.34,7.1,7.24,28287,0
20140122,7.3,7.44,7.3,7.32,4151,0
20140123,7.4,7.62,7.4,7.58,4862,0
20140124,7.6,7.67,7.56,7.65,8085,0
20140127,7.54,7.62,7.46,7.62,7894,0
20140128,7.62,8,7.52,7.9,23263,0
20140129,8.2,8.22,8.03,8.17,38731,0
20140130,8.14,8.73,8.05,8.66,26773,0
20140131,8.73,8.73,8.59,8.65,39072,0
20140203,8.65,8.9,8.6,8.78,19938,0
20140204,8.75,8.76,8.67,8.69,7358,0
20140205,8.5,8.5,8.33,8.44,12054,0
20140206,8.43,8.43,8.14,8.14,11773,0
20140207,8.27,8.27,8.06,8.1,59425,0
20140210,8.1,8.23,8.02,8.02,2086,0
20140211,8.05,8.22,7.82,7.99,12277,0
20140212,7.99,8.4,7.99,8.3,16793,0
20140213,8.34,8.37,8.25,8.37,2827,0
20140214,8.35,8.36,8.17,8.25,2902,0
20140217,8.16,8.19,8.06,8.17,5840,0
20140218,8.06,8.21,7.92,8.1,6557,0
20140219,8.19,8.19,7.98,8.1,4598,0
20140220,8.1,8.19,8.08,8.1,1955,0
20140221,8.01,8.15,8,8.15,2371,0
20140224,8.06,8.18,8.06,8.1,1704,0
20140225,8.1,8.1,7.93,7.95,5305,0
20140226,7.99,7.99,7.71,7.71,6297,0
20140227,7.7,7.7,7.36,7.53,4763,0
20140228,7.42,7.7,7.42,7.7,3440,0
20140303,7.47,7.47,6.94,7.1,14788,0
20140304,7.05,7.29,7.05,7.25,6514,0
20140305,7.35,7.6,7.29,7.5,42511,0
20140306,7.45,7.5,7.3,7.3,5083,0
20140307,7.31,7.31,7.2,7.2,26264,0
20140310,7.07,7.07,6.9,6.99,6809,0
20140311,6.99,7.17,6.91,7.17,4995,0
20140312,7.12,7.12,6.98,7,4302,0
20140313,6.99,7.05,6.96,7.04,6303,0
20140314,7.04,7.05,6.73,6.75,44362,0
20140317,6.72,6.9,6.72,6.9,5698,0
20140318,6.9,6.94,6.9,6.94,4879,0
20140319,6.95,7.5,6.95,7.5,23864,0
20140320,7.59,7.75,7.4,7.65,6977,0
20140321,7.7,7.75,7.61,7.67,7848,0
20140324,7.66,7.66,7.25,7.37,2906,0
20140325,7.31,7.43,7.31,7.43,738,0
20140326,7.43,7.43,7.29,7.37,3117,0
20140327,7.35,7.35,7.22,7.22,850,0
20140328,7.2,7.22,6.97,7,6911,0
20140331,6.99,7.34,6.94,7.34,4542,0
20140401,7.34,7.34,6.94,7,18852,0
20140402,7,7,6.8,6.93,5547,0
20140403,6.82,7,6.82,7,29213,0
20140404,6.89,7.06,6.87,7.01,23648,0
20140407,6.9,6.9,6.84,6.84,21089,0
20140408,6.89,6.89,6.84,6.85,1790,0
20140409,6.86,6.89,6.86,6.86,2271,0
20140410,6.89,6.89,6.83,6.85,2202,0
20140411,6.83,6.84,6.75,6.81,3803,0
20140414,6.78,6.78,6.67,6.67,1576,0
20140415,6.46,6.55,6.4,6.4,21764,0
20140416,6.37,6.37,6.12,6.32,7471,0
20140417,6.35,6.35,6.25,6.25,74365,0
20140422,6.25,6.5,6.25,6.5,3275,0
20140423,6.5,6.57,6.4,6.4,3922,0
20140424,6.38,6.41,6.25,6.25,2240,0
20140425,6.26,6.4,6.26,6.31,347,0
20140428,6.31,6.31,6.31,6.31,15,0
20140429,6.39,6.39,6.35,6.35,25,0
20140430,6.37,6.37,6.28,6.28,720,0
20140502,6.35,6.35,6.27,6.27,48,0
20140505,6.35,6.35,6.15,6.15,1249,0
20140506,6.18,6.18,6.07,6.15,400,0
20140507,6.15,6.15,5.79,5.99,8398,0
20140508,5.97,5.97,5.88,5.9,70225,0
20140509,5.83,5.83,5.65,5.65,763,0
20140512,5.55,5.62,5.51,5.62,1948,0
20140513,5.6,5.65,5.6,5.6,62550,0
20140514,5.66,5.7,5.6,5.6,1503,0
20140515,5.75,5.94,5.75,5.86,6164,0
20140516,5.75,5.92,5.74,5.82,1799,0
20140519,5.82,5.86,5.73,5.73,1682,0
20140520,5.73,5.76,5.62,5.76,4271,0
20140521,5.61,5.76,5.6,5.76,4792,0
20140522,5.74,5.81,5.63,5.81,2558,0
20140523,5.81,5.81,5.7,5.75,27448,0
20140526,5.84,5.84,5.75,5.75,1850,0
20140527,5.75,5.81,5.75,5.8,617,0
20140528,5.8,5.92,5.8,5.81,9702,0
20140529,5.79,5.86,5.79,5.82,350,0
20140530,5.83,5.83,5.83,5.83,50,0
20140602,5.91,5.91,5.85,5.85,350,0
20140603,5.92,5.95,5.74,5.85,9499,0
20140604,5.85,5.9,5.85,5.9,1003,0
20140605,5.88,6,5.88,5.95,5591,0
20140606,6,6,5.9,6,191,0
20140609,6,6,5.95,5.95,416,0
20140610,6,6,5.96,5.96,4195,0
20140611,5.96,5.98,5.91,5.91,3806,0
20140612,5.93,5.93,5.89,5.89,400,0
20140613,5.78,5.83,5.78,5.83,51,0
